#                 frames                   t (s)                 x (pxl)                 y (pxl)                       f
                   306.0      21.944999999999997                     nan                     nan                     nan
                   307.0                 22.0495                     nan                     nan                     nan
                   308.0                  22.154                     nan                     nan                     nan
                   309.0                 22.2585    0.022778989405599668     -0.1886806094609999                1.147598
                   310.0      22.363000000000003                     nan                     nan                     nan
                   311.0      22.467499999999998     -0.1099853669423391     -0.2843171250840499                1.766949
                   312.0                  22.572     -0.2975593702450522      -0.075909473453899                1.429091
                   313.0                 22.6765     0.06753985876326189     -0.4064721115159398                1.710419
                   314.0      22.780999999999995   -0.006410377935771013    -0.31519864143752024                2.301701
                   315.0      22.885499999999997     0.11732772497957035     -0.3627138996280374                1.605408
                   316.0                   22.99      0.1868671804508107    -0.22680055962506118                2.210467
                   317.0      23.094500000000007                     nan                     nan                     nan
                   318.0                  23.199    -0.07152675822653337    -0.46773082926300613                1.559133
                   319.0      23.303499999999996     -0.1259100015864007     0.07455421578402525                1.732819
                   320.0      23.407999999999998      0.2511566313654012    -0.25535396154322665                2.057936
                   321.0                 23.5125     -0.0364835653426882    0.055071947288060724                2.236358
                   322.0                  23.617      0.2763602195152103    -0.05582168887192693                1.775153
                   323.0      23.721499999999995   -0.025725903928675183    -0.35495650417707825                  2.0451
                   324.0      23.825999999999997    -0.33567682853852193    -0.28378853490368566                2.062098
                   325.0                 23.9305      0.1362606003557975     -0.3314177263477727                1.873475
                   326.0                  24.035    -0.02661366152381809    -0.32229156553558913                2.415147
                   327.0                 24.1395     0.09883386331639725    -0.26353283719279186                1.771581
                   328.0      24.244000000000003                     nan                     nan                     nan
                   329.0      24.348499999999998     0.08324742478722955     -0.1337055895019659                2.184077
                   330.0                  24.453     -0.0668403527569527     0.08613197019348062                2.587459
                   331.0                 24.5575    -0.02243210977188143   -0.013016218191277925                2.484784
                   332.0      24.661999999999995     0.15360780597962395    -0.10939791173420135                2.611956
                   333.0      24.766499999999997   -0.030405372384946165    -0.13037432308524194                3.191806
                   334.0                  24.871     0.03200029704765698    -0.17736939372747515                2.625853
                   335.0                 24.9755    0.017854268174701496     0.05158074453875281                2.868344
                   336.0      25.080000000000002     0.16684331359562568     0.19943524084360623                3.193368
                   337.0      25.184499999999996     0.19971474119576765     0.10744288272333505                2.431372
                   338.0      25.288999999999998    -0.05633867795759749    -0.03537119749941903                2.672079
                   339.0                 25.3935    0.048033736650926535   0.0048897477675096295                3.201376
                   340.0                  25.498     0.16217940093234182     0.19307336001564335                3.302628
                   341.0      25.602499999999996      0.1112361154383359    0.024811833491970903                 2.63695
                   342.0      25.706999999999997     0.22932435711233973     0.14690788091506107                 2.86853
                   343.0                 25.8115    0.027607791604912106   -0.060808125949815175                3.046635
                   344.0                  25.916     0.23461876093611814     0.07809824145843769                2.360573
                   345.0      26.020500000000002     0.07849591070017621     0.14368827505506376                 2.57087
                   346.0      26.124999999999996     0.11449537093354778    0.013226959620539536                2.149603
                   347.0      26.229499999999998     0.15595094439793727      0.2909877220020179                2.965074
                   348.0                  26.334     0.19746614238585644     0.19331775844604573                2.865196
                   349.0                 26.4385      0.2659791838000472     0.24347060682156216                2.835624
                   350.0      26.542999999999996      0.2172860451345857       0.144862713507147                 2.74547
                   351.0      26.647499999999997    0.016074046754743127     0.16430870653885216                3.593691
                   352.0                  26.752      0.6857662620646046      0.5124437243744223                3.276775
                   353.0                 26.8565     0.26182920904904866     0.18785556092959493                3.329154
                   354.0      26.960999999999995     0.10392974352646726   -0.027488025231411795                3.344633
                   355.0      27.065499999999997   0.0018008183010506142     0.27491134873834916                3.322932
                   356.0      27.169999999999998     0.17038852031196078    -0.12069369234010141                3.699375
                   357.0      27.274500000000007                     nan                     nan                     nan
                   358.0                  27.379      0.2005625848715674     0.06494126532938777                3.208028
                   359.0      27.483500000000003                     nan                     nan                     nan
                   360.0      27.587999999999997     0.25660845866323995     0.23649514931610305                3.382444
                   361.0                 27.6925     0.16856507795639827      0.3441213302699428                3.556292
                   362.0                  27.797     0.10122161642268898     0.32811593175386616                3.522807
                   363.0      27.901499999999995      0.1340225136835168     0.15748142720134362                3.223535
                   364.0      28.005999999999997     0.10265795240216823     0.23592144298174814                3.762644
                   365.0                 28.1105      0.5890369848803961     0.38094432005477874                3.546515
                   366.0                  28.215    0.023524715665513105   -0.029968517053570284                2.929751
                   367.0                 28.3195     0.23668477624774134    -0.04087975316969774                2.590384
                   368.0      28.423999999999996     0.21662742198356727     0.10207600191879704                2.589754
                   369.0      28.528499999999998     0.15390369475030283     0.18318597814840357                3.088908
                   370.0                  28.633     0.14941788759787117       0.205426166798484                2.762465
                   371.0                 28.7375     0.06445576283985886     0.13016847675551632                3.257699
                   372.0      28.841999999999995   5.025221605541171e-05   -0.019319596368352406                3.665069
                   373.0      28.946500000000004                     nan                     nan                     nan
                   374.0                  29.051    -0.06255512554259951   0.0009547546618512608                 3.07455
                   375.0                 29.1555     0.09024285675580124   0.0035339775170782307                3.270952
                   376.0                   29.26    0.033488051361499474   -0.025428658596625714                2.496916
                   377.0      29.364499999999996   -0.026504334623833833   -0.010212802104581553                2.633135
                   378.0      29.468999999999998     0.06264764855112968   -0.010370726044698913                2.886114
                   379.0                 29.5735    0.027602635936327235    -0.09093079180824933                2.655844
                   380.0                  29.678      0.2227870680390205     0.15326760398858766                2.883681
                   381.0      29.782499999999995     0.12549314407687648     0.13088416993460297                2.547012
                   382.0      29.887000000000004                     nan                     nan                     nan
                   383.0                 29.9915     0.07403135319034779   0.0008097983476113863                3.353838
                   384.0                  30.096      0.1461334364666094    -0.04670135714479051                3.885714
                   385.0                 30.2005     0.14921302535649808     0.19231266991694812                3.687495
                   386.0      30.304999999999996     0.14593308640068697    0.003455650639277441                3.177995
                   387.0      30.409499999999998      0.0965384625266141     0.20827076239946876                3.642036
                   388.0                  30.514     0.13494886442941414        0.31085959199444                3.005593
                   389.0                 30.6185      0.1598714875623915     0.10150652147200698                 3.39821
                   390.0      30.722999999999995     0.15627974983041082      0.2561552221780369                3.889648
                   391.0      30.827499999999997    0.052048760914642604     0.12337414976693709                 3.77735
                   392.0                  30.932    0.042497796710013885    -0.05719512969045256                3.501415
                   393.0                 31.0365     0.09529380062317927     -0.0497441974802791                4.337855
                   394.0      31.141000000000002    -0.02281105789774268     0.13110092479774382                4.577915
                   395.0      31.245499999999996    0.043291597122213726     0.21178192952818004                4.369554
                   396.0      31.349999999999998     0.11750973672642412     0.16054569059819698                3.648051
                   397.0                 31.4545        0.10812075831433     0.14575915840240344                3.339012
                   398.0                  31.559     0.12624257090527802    0.005239153800145979                 3.99453
                   399.0      31.663499999999996     0.06867713062235195      0.2572579446670802                3.277241
                   400.0      31.767999999999997     0.20453514265226472     0.07016748008569249                3.599197
                   401.0                 31.8725     0.18174500934582108     0.21137992002592856                3.657388
                   402.0                  31.977     0.13495127378976274     0.09244376016397018                3.828979
                   403.0       32.08149999999999     0.09675211508785246      0.2212178149050784                3.672906
                   404.0       32.18599999999999     0.17984915958675893      0.2485989899994105                2.956295
                   405.0       32.29050000000001                     nan                     nan                     nan
                   406.0      32.394999999999996   -0.034906224659561655    -0.02002241742973223                3.994782
                   407.0                 32.4995     0.19290789829734695     0.14646145356795012                4.109086
                   408.0                  32.604   -0.018003555736513754     0.14131128169502535                4.488125
                   409.0                 32.7085     0.11108484242746627     0.28837079136188126                4.107417
                   410.0                  32.813      0.2477481703049992      0.2691361875074498                3.833428
                   411.0      32.917500000000004    0.004139891657401961     0.17867632903224442                3.508395
                   412.0       33.02199999999999     0.11803319770271284     0.11957856525840174                4.076062
                   413.0       33.12649999999999      0.3200343773974024      0.1736951067864326                3.850077
                   414.0      33.230999999999995     0.16318247781190076    0.057434438555855706                4.294236
                   415.0       33.33550000000001                     nan                     nan                     nan
                   416.0                   33.44     0.05768321965719534     0.14451786624910823                3.732421
                   417.0                 33.5445     0.13344189746599885     0.09331257954293952                3.515766
                   418.0                  33.649                     nan                     nan                     nan
                   419.0                 33.7535     0.12174601128705488    0.029686052531878594                4.344299
                   420.0      33.858000000000004     0.05501524533229699     0.04870466583809648                4.724556
                   421.0       33.96249999999999     0.06227423161232041    0.004954216786839837                5.132432
                   422.0       34.06699999999999    0.022624543263431926     0.03684755369027147                5.166336
                   423.0      34.171499999999995     0.06245499253784109  -0.0012432413604821714                 4.62372
                   424.0      34.275999999999996    0.011747902315176964     0.06257730168131699                4.432436
                   425.0                 34.3805     0.13518335666454076    -0.06711151330118002                4.842483
                   426.0                  34.485   -0.014932250090482388    0.009969581985341421                4.655326
                   427.0                 34.5895     0.05542057886676098    -0.10512085002233422                4.332367
                   428.0                  34.694     0.20030997811774046    -0.13309043932375708                4.634886
                   429.0      34.798500000000004   -0.057342068254884214    -0.22354129305105275                4.425656
                   430.0       34.90299999999999     0.15233786641670366    0.012887660920577231                3.585335
                   431.0       35.00750000000001                     nan                     nan                     nan
                   432.0      35.111999999999995     0.08286481903168011   0.0037160965480794624                5.161713
                   433.0       35.21650000000001                     nan                     nan                     nan
                   434.0                  35.321    0.023988098406874575     -0.0803582023218382                4.420045
                   435.0                 35.4255                     nan                     nan                     nan
                   436.0                   35.53    -0.09824870395778239    -0.06830821026110645                3.391901
                   437.0                 35.6345     0.03568223309688351    -0.11164943572437014                4.330902
                   438.0      35.739000000000004      0.0716755992356884    -0.04024524957959241                3.501959
                   439.0       35.84349999999999     0.06709158949771696    0.011582630096526407                 3.51406
                   440.0       35.94800000000001                     nan                     nan                     nan
                   441.0      36.052499999999995    0.036536924741108694    0.015188199345794448                3.770732
                   442.0                  36.157    0.021858445471902004   -0.018518842401339487                 4.37912
                   443.0                 36.2615    0.052908602539263376    -0.07827924062702599                4.826385
                   444.0                  36.366     0.03646142951292412     0.08824205475720609                4.151051
                   445.0                 36.4705     0.09697500095144931    0.035269166354215134                 3.78694
                   446.0                  36.575                     nan                     nan                     nan
                   447.0      36.679500000000004      0.1820448710298566   -0.019027769672071378                4.793402
                   448.0       36.78399999999999     0.13807154393882556    -0.12202152067933712                4.350825
                   449.0       36.88849999999999   -0.009732510384229887   -0.023085350596455504                4.694224
                   450.0      36.992999999999995    0.056370184151381696    0.026804558765377413                4.658101
                   451.0                 37.0975   -0.035452404457274204    -0.08601551592972147                 5.27904
                   452.0                  37.202                     nan                     nan                     nan
                   453.0                 37.3065     0.10220747637939463    -0.02204775898111526                4.299546
                   454.0                  37.411     0.12206011246690435  -0.0059045038763687035                5.209133
                   455.0                 37.5155     0.03803272251401548    -0.02932270958698478                4.641454
                   456.0      37.620000000000005    0.015760319352751392     0.07399904193912121                4.512987
                   457.0       37.72449999999999     0.10900980917303929    -0.05215679265149856                4.871335
                   458.0       37.82899999999999     0.14131485873150954    -0.03729792640857633                4.703759
                   459.0      37.933499999999995     0.27016175435913803    -0.16801115990512325                4.341478
                   460.0                  38.038      0.0531171500640095    -0.03719991210367169                4.556082
                   461.0                 38.1425      0.2358863077992634   -0.014810442128996498                4.251794
                   462.0                  38.247     0.18578911127313355     0.07148284677704599                3.991684
                   463.0                 38.3515     0.27794530579248294    -0.05108257761626111                3.961542
                   464.0                  38.456      0.3148992211034204    -0.12096835897550261                3.945172
                   465.0      38.560500000000005      0.4799620049058945      0.0466394169669558                4.034529
                   466.0       38.66499999999999      0.3185930404816641    -0.09137881696484225                3.678362
                   467.0      38.769499999999994      0.3192099423831313    -0.03581301779805322                3.268418
                   468.0      38.873999999999995      0.2678436763566778    -0.10001670055456817                4.054701
                   469.0                 38.9785      0.3157984977865662     -0.2298141759022358                3.716249
