#                frames                  t (s)                x (pxl)                y (pxl)                      f
                  315.0     21.944999999999997                    nan                    nan                    nan
                  316.0                22.0495                    nan                    nan                    nan
                  317.0                 22.154                    nan                    nan                    nan
                  318.0                22.2585    0.32224715081548566     -0.275896129637679               1.082163
                  319.0     22.363000000000003                    nan                    nan                    nan
                  320.0     22.467499999999998     0.2572110043917003     0.6004450809386178               1.620693
                  321.0                 22.572       0.70618985166152   -0.07057421837865925               1.681464
                  322.0                22.6765     0.5921431795604992    0.40839188475148064               1.540893
                  323.0     22.781000000000002                    nan                    nan                    nan
                  324.0     22.885499999999997     0.4040332906592259   0.028531694851904932                1.20981
                  325.0                  22.99    0.02282407952358847     0.3092864798981135               1.332767
                  326.0                23.0945      0.510686924124414    0.24983255814364566               1.482948
                  327.0                 23.199    0.17622581854523187    0.23573963166425976               1.293276
                  328.0     23.303499999999996    0.08252254031813236     0.4048650165669866                1.36329
                  329.0     23.408000000000005                    nan                    nan                    nan
                  330.0                23.5125    0.30406776840483435    0.32313623976831485               1.293223
                  331.0                 23.617     0.2119817302282567   0.017382116921319156               1.355995
                  332.0     23.721499999999995    0.44385456333127166    0.13944008749996867               1.365012
                  333.0     23.825999999999997    0.23454856131703894  0.0017650977239771076               0.989767
                  334.0                23.9305     0.3850348539932191     0.1840889968638792               1.695339
                  335.0                 24.035  -0.024248657486136607    0.42107262787904326               1.543868
                  336.0                24.1395   -0.08317573743068864     0.1228771394302561               1.193594
                  337.0     24.243999999999996    0.30588266978612494   0.002529753804647372                1.11059
                  338.0     24.348499999999998   -0.06518663905372367     0.2530630879023694               1.203257
                  339.0                 24.453    0.03340493197717982     0.3904198559979339               1.367765
                  340.0                24.5575     0.2977329320679529   -0.20553866497899526               1.231723
                  341.0     24.661999999999995    0.24454584581725403   0.023202773405395272               1.587064
                  342.0     24.766499999999997     0.3439486291617253   0.048208319377739284               1.728089
                  343.0                 24.871    0.24974238173414823   0.018791241419278387               2.595667
                  344.0     24.975500000000007                    nan                    nan                    nan
                  345.0     25.080000000000002                    nan                    nan                    nan
                  346.0     25.184499999999996    0.28704954739340416     0.8353235439477652               1.346972
                  347.0     25.288999999999998    0.12428035467970207    0.42053115485132675               1.420687
                  348.0                25.3935     0.4757639610835277    0.26900434529156614               1.468485
                  349.0                 25.498     0.2391417104079617    0.03243969526703333                1.42261
                  350.0     25.602499999999996     0.2838876420339392   0.012652332635183585               1.091739
                  351.0     25.706999999999997    0.28494602182647766    0.11722298746825487               1.243585
                  352.0                25.8115     0.5345644354537026     0.1832632122348957               1.229026
                  353.0                 25.916    0.43450002680481614  -0.041687456301000625               1.599391
                  354.0     26.020499999999995     0.3334679367084965     0.0407063706508422               1.589742
                  355.0     26.124999999999996    0.24796162490489668   -0.22767716960963452                 1.9241
                  356.0     26.229499999999998    0.37938250004382756   -0.07331137468174866               1.809094
                  357.0                 26.334      0.387896087656402     -0.246260735264442               1.821753
                  358.0                26.4385    0.26321362573095247  -0.012423485156147362                2.50142
                  359.0     26.542999999999996     0.1962175477842955   -0.16584815111558435               2.343233
                  360.0     26.647499999999997    0.23395474879759437    0.24312147262154107               2.707748
                  361.0                 26.752   0.052346650760768915      0.509764603274567               3.113365
                  362.0                26.8565    0.15265746244461983    0.19105944491762272               2.709315
                  363.0     26.960999999999995    0.25446457646561177    0.33943733057353226                3.65941
                  364.0     27.065500000000004                    nan                    nan                    nan
                  365.0     27.169999999999998   0.014259298672325296     0.5335333519141366               1.952444
                  366.0                27.2745    0.07123013281454561     0.4862496511903136               2.282531
                  367.0                 27.379   -0.17274738371957438    0.42985790511126126               2.515303
                  368.0     27.483499999999996   0.048843563602624596     0.4390123604665723               2.172855
                  369.0     27.587999999999997    0.07278584656237155    0.07150008043136871               1.478685
                  370.0     27.692500000000006                    nan                    nan                    nan
                  371.0                 27.797    0.03507771229170096    0.25258197951248684               2.455192
                  372.0     27.901499999999995    0.08492590698653255    0.26167620216565635               2.285853
                  373.0     28.005999999999997    0.02815657089370142    0.25468088940787503               3.043679
                  374.0                28.1105    0.13216699931274567  0.0034529666642333094               2.728728
                  375.0                 28.215     0.5465049950040856    0.06159636291419816               2.290444
                  376.0                28.3195   -0.07591077140137455    0.40392991946381357               1.850934
                  377.0     28.423999999999996    -0.1425797197583294   0.009879651632448496               2.322898
                  378.0     28.528499999999998    0.22562428680652208    0.16723995255232343               2.356489
                  379.0                 28.633    0.21950652053732742   0.050418180485316474               1.779607
                  380.0                28.7375    0.16481987209069915    0.04925951069830774               2.300455
                  381.0     28.841999999999995    0.07583118963735135    0.08340729335277026               1.969877
                  382.0     28.946499999999997   0.061918477256587945     0.2939421745083871               1.415056
                  383.0                 29.051    0.07856351739768762    0.06181529108317084                2.27921
                  384.0     29.155500000000007                    nan                    nan                    nan
                  385.0                  29.26   -0.09261801396280292     0.0781061560717146               2.018684
                  386.0     29.364499999999996    0.35904008317370606    0.18103318943528385               2.830269
                  387.0     29.468999999999998    0.16781814532354164    0.12039086813384499               3.610558
                  388.0                29.5735   -0.00774214960482997    0.16922283093141013               3.094503
                  389.0                 29.678     0.1067600936402682   -0.09316009999940077               2.731468
                  390.0     29.782500000000002                    nan                    nan                    nan
                  391.0     29.886999999999997    0.21691037609437927   -0.08078080065414421               2.754804
                  392.0                29.9915     0.1356333745534637   0.015055210873459093               2.640439
                  393.0                 30.096    0.19106863228694274   0.058165251664697985               3.072765
                  394.0                30.2005    0.30384950375790426   -0.02708299312808194               2.669941
                  395.0     30.304999999999996     0.4679015081851556   -0.11410293721219582               2.744596
                  396.0     30.409499999999998     0.2779793909449279   0.034495603705915735               2.688179
                  397.0                 30.514    0.05812737091065708    0.11010053608369802               2.355303
                  398.0                30.6185     0.0850406156918348    0.41635422378125475                2.94505
                  399.0     30.722999999999995     0.1963668287815999    -0.2034111909976791               3.508451
                  400.0     30.827499999999997    0.03679194452413788    -0.1124935270691744               3.182834
                  401.0                 30.932    0.11910540335653483  -0.006520266366072005               3.879876
                  402.0                31.0365                    nan                    nan                    nan
                  403.0     31.140999999999995    0.10579655670441625   -0.04368917280399067               2.494402
                  404.0     31.245499999999996   0.013539305056594475      0.192404333373941               2.605223
                  405.0     31.349999999999998   0.045195930758107745   -0.09114988667258231               3.084943
                  406.0                31.4545    0.13941978892367318    0.07955504792919403               3.436023
                  407.0                 31.559     0.2328987471988459   -0.19838401716384205               3.441586
                  408.0     31.663499999999996     0.2503928272482242     0.2275227864636949               3.706252
                  409.0     31.767999999999997    0.05855953810281003    0.27487871260448926               3.996906
                  410.0                31.8725    0.09463692871624683   -0.03258312971178882               3.696286
                  411.0                 31.977                    nan                    nan                    nan
                  412.0      32.08149999999999   -0.04913025209693015   0.044944129823354426                4.64473
                  413.0      32.18599999999999   0.003460821775191388    0.06646253308609738               5.196991
                  414.0     32.290499999999994     0.2285479306435778     0.2679438145225258               4.303042
                  415.0     32.394999999999996    0.08910802232587227    0.01207391550088057               4.585153
                  416.0                32.4995    0.18187527750389837   0.024901134168013535                4.99103
                  417.0                 32.604    0.16977050657592965   -0.09741784948448076               4.471636
                  418.0                32.7085    0.04811058902459095   -0.03333162146002297               4.090883
                  419.0                 32.813    0.08320160399777084   -0.04418914498762488               4.068025
                  420.0     32.917500000000004    0.13801446700193915  -0.003144792169185089               3.788352
                  421.0     33.022000000000006                    nan                    nan                    nan
                  422.0      33.12649999999999     0.1697869045945161   -0.11009330356332733               4.534888
                  423.0     33.230999999999995      0.168734976304858   -0.10198435252923335               4.763288
                  424.0     33.335499999999996     0.1935839107986305  -0.007613321807279201               4.729307
                  425.0                  33.44    0.14942449167766428    0.09354080285355049               4.218646
                  426.0                33.5445    0.07004292383296111    0.03147311632089429                3.26979
                  427.0                 33.649    0.05977314465036772  -0.025983982296597728               3.209217
                  428.0                33.7535  -0.026733092690737134    0.27097494143879314               3.650166
                  429.0     33.858000000000004    0.23677289185018646    0.10872060954865395               3.630167
                  430.0     33.962500000000006                    nan                    nan                    nan
                  431.0      34.06699999999999     0.1058349535156534    0.06537247832363573               5.459006
                  432.0     34.171499999999995    0.09218816259654422    -0.1615560594974299               5.236634
                  433.0     34.275999999999996    0.16358046917087962    -0.1517975979385184                4.29178
                  434.0                34.3805    0.10659381015927548  -0.014034831268069297               4.619721
                  435.0                 34.485    0.25360631105200837  -0.021311874023618727               4.861679
                  436.0                34.5895    0.17842731203966533   -0.08981718272670204               4.961822
                  437.0                 34.694    0.06385376731028422   -0.11652303925936919               5.289297
                  438.0     34.798500000000004    0.08445180943616873   -0.09137287145515728               4.585979
                  439.0      34.90299999999999    0.16871973089561546   -0.09171460659384613               5.116844
                  440.0      35.00749999999999     0.2520896471429041  -0.004998699881639793               5.060323
                  441.0      35.11200000000001                    nan                    nan                    nan
                  442.0     35.216499999999996    0.09582574146032236    0.10382345149768156               5.207635
                  443.0                 35.321                    nan                    nan                    nan
                  444.0                35.4255    0.19022667627548462   -0.04643355893118445               4.555927
                  445.0                  35.53    0.17286328790043826    0.12271638966217534               4.499148
                  446.0                35.6345    0.08806738359487921    0.12091831263288225               4.937319
                  447.0     35.739000000000004                    nan                    nan                    nan
                  448.0      35.84349999999999    0.30932301415178753   -0.09347715179409907               3.896456
                  449.0      35.94800000000001                    nan                    nan                    nan
                  450.0     36.052499999999995    0.21851693296229338    0.07309011870045311               4.903421
                  451.0                 36.157    0.26588525482239217   -0.09381087089864185                5.13879
                  452.0                36.2615     0.2042755466538868    0.03357370852677966               4.924797
                  453.0                 36.366     0.2066654482899037  -0.043817497835252926               5.472364
                  454.0                36.4705     0.3420198624056415   -0.23130017916711265               4.605214
                  455.0                 36.575     0.2891395372190058   -0.14518693504546454               4.343671
                  456.0     36.679500000000004    0.31122818278440867   -0.03395541874236635               3.705176
                  457.0      36.78399999999999    0.48689580283324657  -0.003868983138052881               3.898197
                  458.0      36.88849999999999     0.4541544465032327  -0.045320537544008346               4.064436
                  459.0     36.992999999999995    0.26792283134314776   -0.15687163738559085               4.857536
                  460.0                37.0975    0.37629228661537867   -0.32320123619470936               4.922086
                  461.0                 37.202    0.47838724729085363   -0.19650115562380374               4.838675
                  462.0                37.3065    0.41620166406920345     -0.137641697255729               4.478077
                  463.0                 37.411     0.2228672957179986   -0.09610259939312077               4.313122
                  464.0                37.5155                    nan                    nan                    nan
                  465.0     37.620000000000005     0.2944187620530176   -0.29034294537280536               3.734092
                  466.0      37.72449999999999    0.24736325904121878    -0.1274614015524345               3.913944
                  467.0      37.82899999999999    0.36187918936782354   -0.08986942998361162               3.856429
                  468.0     37.933499999999995    0.20952471493619795  -0.035546747008060604               3.754268
                  469.0                 38.038    0.23183744181326899   -0.07675476860955659               3.838537
                  470.0                38.1425    0.24028752760794697    0.05443867624216532               4.223447
                  471.0                 38.247     0.2405886499766581  -0.057483489651449636               3.974634
                  472.0                38.3515     0.3004399566859693   -0.04923259968812083               4.120091
                  473.0                 38.456                    nan                    nan                    nan
                  474.0     38.560500000000005    0.36364447629115765   -0.07915211884330092                  3.262
                  475.0      38.66499999999999    0.25805100086699534  -0.004350778762747205                4.06137
                  476.0     38.769499999999994     0.3819659215063814   -0.08671318379644555               3.471334
                  477.0     38.873999999999995     0.3496118383517281    0.07879676946383779               4.045919
                  478.0                38.9785     0.4674873831439491   -0.08955430406389042                3.87214
                  479.0                 39.083     0.4016895956272102    0.04555587076725734               3.870566
                  480.0                39.1875                    nan                    nan                    nan
                  481.0                 39.292     0.5359772077915997   -0.19357298050583355               3.311493
                  482.0                39.3965     0.5941435340995521   -0.11665088521561318               3.042055
                  483.0     39.501000000000005     0.4378395140263127  -0.013932695896755026               2.422392
                  484.0      39.60549999999999     0.6547812391024571   0.042450092443171175               2.531526
                  485.0      39.71000000000001                    nan                    nan                    nan
