#                 frames                   t (s)                 x (pxl)                 y (pxl)                       f
                    27.0                  21.945     0.31674638222945134     -0.0943915827120113                1.433833
                    28.0                 22.0495     0.35719825252644066    -0.46153507237167546                2.010169
                    29.0      22.154000000000003                     nan                     nan                     nan
                    30.0      22.258499999999998     0.03236226318379292     -0.5607314516795139                 1.59313
                    31.0                  22.363     0.13338442244147417     -0.9265402727594818                 1.50765
                    32.0                 22.4675      0.2976332375310808    -0.10587804377445684                1.203742
                    33.0                  22.572       0.190323182418365    -0.40776822127897167                1.375449
                    34.0                 22.6765    -0.01635138515589111      0.1683325167590834                1.337112
                    35.0                  22.781     0.09799599189825135     -0.1621133727868986                1.761181
                    36.0                 22.8855     0.09158551045613855     0.02019264087606256                1.903652
                    37.0                   22.99     0.07640716561905395    -0.16270494432670957                1.383544
                    38.0                 23.0945   -0.045516508592231955     -0.2534575609050798                1.345714
                    39.0      23.198999999999998  -0.0017121498475554664    -0.23155995610529384                1.624157
                    40.0                 23.3035     0.23856983184719321      0.2000883230733096                1.452227
                    41.0                  23.408      0.3627159341468747    -0.22734282898489333                 1.71319
                    42.0                 23.5125     0.13427914633960866    -0.17743634302065936                1.988008
                    43.0                  23.617    0.017517904950455014    -0.34402397760757314                1.555744
                    44.0                 23.7215     0.19008553727174024    -0.11301412637818321                1.392892
                    45.0                  23.826     0.36454156475414895     -0.3417992429156326                1.271617
                    46.0                 23.9305      0.1560432761001742    -0.15860628827391499                1.389619
                    47.0                  24.035     0.14890782271297875    -0.23993249848291975                1.448163
                    48.0      24.139499999999998     0.15922326767024075     0.08089617066672661                1.367233
                    49.0                  24.244   -0.021149065166746167    -0.24124536925469173                 1.44742
                    50.0                 24.3485     0.12723364128200865      -0.750708869568447                1.736964
                    51.0                  24.453      0.5349465648044045    -0.20314244270059717                1.937194
                    52.0                 24.5575      0.3603676324722383    0.003916590540549741                1.525462
                    53.0                  24.662     0.22656488223440205    -0.21136567857790287                1.633536
                    54.0                 24.7665     0.22255365287152318    -0.26738844148726754                1.670378
                    55.0                  24.871     0.26827567542048697    -0.14798494029893838                 1.54005
                    56.0                 24.9755   -0.003359840636174072     0.09081633545484277                1.893968
                    57.0                   25.08     0.19898516252803666     -0.2796242757427933                2.358342
                    58.0                 25.1845    -0.15605680211997472    -0.14219077000680444                2.688494
                    59.0                  25.289    -0.14858558160374621     -0.3271555113009148                2.657174
                    60.0                 25.3935   -0.029300206225982395    -0.17095058915379904                3.311754
                    61.0      25.497999999999998    0.001553747582901473     -0.2847513102427227                2.448785
                    62.0                 25.6025     0.06880036781112578     -0.7060057979907828                2.775031
                    63.0                  25.707      0.2939132072311442     -0.1835940426136185                2.551268
                    64.0                 25.8115      0.1092339426176118     -0.2542279525917785                2.580116
                    65.0                  25.916   -0.041267121609398945    -0.25556262391366924                2.644337
                    66.0                 26.0205    -0.07443648305254837    -0.34903838684425437                2.336642
                    67.0                  26.125    0.018310884631240185    -0.09512274501073166                2.358691
                    68.0                 26.2295     0.08356976925070395    -0.36309867109034594                2.171688
                    69.0                  26.334    -0.10091291213828668    -0.34029948600559007                2.479802
                    70.0      26.438499999999998     -0.0984016188034751    -0.38279118455703237                2.549698
                    71.0                  26.543     0.19714848237633087     -0.5254275294295965                2.668231
                    72.0                 26.6475     0.31879569843948247     -0.2692636187843147                2.867776
                    73.0                  26.752    -0.11355623162231324     -0.6710055999760258                2.340434
                    74.0                 26.8565    -0.09156348876672822     -0.4716164607941519                2.358055
                    75.0                  26.961     0.20203138868210893     -0.3553563795245975                2.453239
                    76.0                 27.0655    -0.19863897310845602    -0.24958015178595083                  2.1513
                    77.0                   27.17     0.07350329625607514     -0.2731691830319272                2.502785
                    78.0                 27.2745     0.04413033742819525      -0.293861825823408                2.652769
                    79.0      27.378999999999998      0.2821085405892788     -0.4400074860881646                  2.8535
                    80.0                 27.4835     0.19475183748394576    -0.42360752427216297                2.636547
                    81.0                  27.588   -0.027927332615330994     -0.3380241148933697                 2.84569
                    82.0                 27.6925     0.15208179603346228     -0.4628871688048493                1.887734
                    83.0      27.796999999999997      0.2023580279897091     -0.2751889668947526                2.290698
                    84.0                 27.9015    -0.09368721972264135     -0.4033054350748233                2.348038
                    85.0                  28.006    -0.11121623808518247     -0.3365703715755946                2.311226
                    86.0      28.110500000000002    0.027085341626812608    -0.27386724107825555                2.419281
                    87.0                  28.215     -0.1511982684165356    -0.13147221869366058                2.247962
                    88.0      28.319499999999998     0.03442615534582198    -0.16987621593213376                2.509403
                    89.0                  28.424    -0.02067206351801536    -0.09102791576000818                  2.7886
                    90.0                 28.5285    -0.12886173623786853     -0.3909677666597694                2.903147
                    91.0                  28.633    0.018441319117960406     -0.3491204720179727                2.544197
                    92.0      28.737499999999997    -0.05734680718119913    -0.17478431526022764                2.906291
                    93.0                  28.842    -0.02719972983449158    -0.33662632120568897                3.215375
                    94.0                 28.9465    -0.27785681818775326     -0.2725881270769887                3.020291
                    95.0      29.051000000000002    -0.10515577659245344    -0.16098593981840897                3.262589
                    96.0                 29.1555    -0.07133223102936048    -0.29180959528461337                3.762765
                    97.0      29.259999999999998    0.024100006600909267     -0.3660161226112531                3.238121
                    98.0                 29.3645       0.083829829867381     -0.1424268288211561                3.046992
                    99.0                  29.469      0.0686922622467387     -0.3387034776017233                3.178562
                   100.0                 29.5735    -0.06892547111949826     -0.2074153317844429                3.276432
                   101.0      29.677999999999997     0.08519380205223848    -0.33425320299811345                3.308197
                   102.0                 29.7825    -0.10537629790268019    -0.30889972345046807                3.502092
                   103.0                  29.887    -0.14364197101663895    -0.18519391715530528                3.638263
                   104.0      29.991500000000002  -0.0027426931441492212    -0.22513874083761654                3.464376
                   105.0                  30.096     0.03811040248038887    -0.28404905693668514                3.606534
                   106.0      30.200499999999998    -0.04139345977954901    -0.05222683658722601                 3.31026
                   107.0                  30.305    0.039259985503623626       -0.28861188323983                3.325762
                   108.0                 30.4095     0.08306453118599044   -0.033124818949751694                3.124688
                   109.0                  30.514     0.19761925020725968    -0.08636587145585109                3.182427
                   110.0      30.618499999999997     0.04568597967721172    -0.01725571021279061                3.221176
                   111.0                  30.723     0.09671113719863916    -0.19448140574228462                3.740115
                   112.0                 30.8275     0.10236498004679977    -0.19104205681431263                3.771214
                   113.0                  30.932  -0.0006596468697484988    -0.36895494635777804                3.598954
                   114.0                 31.0365     0.04053127946490565   -0.061615018984694625                3.741643
                   115.0                  31.141    -0.12841227021489196   -0.028449287188317345                3.578639
                   116.0                 31.2455    -0.03048340933806349     -0.1362460706670715                3.709861
                   117.0                   31.35    -0.09838289377490589    -0.12618535010587553                 3.46322
                   118.0                 31.4545   -0.055424631975285535    -0.16620180907160134                 3.92483
                   119.0      31.558999999999997   -0.020975734672103192    -0.06976278898328507                3.846213
                   120.0                 31.6635      0.0345972997339515    -0.09384490186616037                3.210835
                   121.0                  31.768     0.08722493817616103     0.12804168386852952                3.060152
                   122.0                 31.8725     0.14844094001427494     -0.0579426287386262                3.598979
                   123.0      31.976999999999997      0.2183158434216772    -0.06709075635069799                3.573453
                   124.0                 32.0815     0.07031730365385068    -0.12412429685619043                3.349817
                   125.0                  32.186      0.2694539265907307   -0.055066271172757524                3.362881
                   126.0                 32.2905     0.11962017078596474     0.08445168781259306                4.069585
                   127.0      32.394999999999996     0.23952549700944473    0.008659318214853546                3.949579
                   128.0                 32.4995       0.121624914111884     0.10067590915592137                3.542377
                   129.0                  32.604    -0.07709504970700776       0.083582592075336                3.341874
                   130.0                 32.7085     0.10630790759885349     0.05417170396456406                3.339814
                   131.0                  32.813     0.06055713158386751      0.0928498231539277                4.067883
                   132.0                 32.9175     -0.0788723538121959     0.11861415491683427                3.826126
                   133.0                  33.022    -0.03143677142748775     0.01465893324507192                4.080757
                   134.0                 33.1265      0.1984129248960302    0.006234830801134527                3.923069
                   135.0                  33.231     0.14292941327963413    0.034008267385632174                3.956806
                   136.0      33.335499999999996     0.09251143978744468   -0.009202043130975269                3.854642
                   137.0                   33.44    -0.03744776135708127      0.0899585907812614                4.128397
                   138.0                 33.5445    -0.04453682600343663      0.1795069692391602                3.657135
                   139.0                  33.649     0.04997797213065818    0.061959654924158114                4.198146
                   140.0                 33.7535      0.0959672034824964     0.12855858164724251                4.116106
                   141.0                  33.858     0.08001506458392267    0.058652768480094805                4.083276
                   142.0                 33.9625     0.12909605902289722      0.1685142139233469                3.981461
                   143.0                  34.067    -0.08996692041001474     0.09067509435627343                4.328282
                   144.0                 34.1715    0.014527646673768359    -0.05408558483173182                4.408715
                   145.0      34.275999999999996  -0.0025962538019974396    -0.03827015598848169                4.417348
                   146.0                 34.3805     0.03357643177383559     0.06919865339932832                4.059243
                   147.0                  34.485     0.13881512716151867     0.13475564324097572                3.920181
                   148.0                 34.5895    0.043615189582488084     0.12811388218322597                3.873738
                   149.0                  34.694    -0.10613324197973277     0.09212254725860855                3.623774
                   150.0      34.798500000000004                     nan                     nan                     nan
                   151.0                  34.903    -0.08413829470669675    -0.11289750278639228                4.001412
                   152.0                 35.0075   -0.013098119814940249     0.03622737811330499                4.679167
                   153.0                  35.112     -0.0644530116869883    -0.10899520276794453                 4.70178
                   154.0      35.216499999999996    0.026266303889556388     0.14721238270587145                    3.88
                   155.0                  35.321    -0.02543778401145578    0.025914016318177052                4.088542
                   156.0                 35.4255   -0.047604026012722865     0.01056662287363615                3.926896
                   157.0                   35.53     -0.1198899379696126     0.14590170288086196                 3.35558
                   158.0                 35.6345   -0.021600671858225142    -0.07426975808827718                3.583956
                   159.0      35.739000000000004    -0.14001975995014687     0.03601980549993568                3.471007
                   160.0                 35.8435    0.060159817665572456    -0.04765915039456483                3.499832
                   161.0                  35.948    0.002301621886005241    -0.10091342712549037                3.694241
                   162.0      36.052499999999995    0.021640234812431373     0.21961463463835046                2.986524
                   163.0                  36.157    0.053326544374294925     0.09408509583831359                3.961817
                   164.0                 36.2615     0.09678377826869275     0.13016842717354155                3.403097
                   165.0                  36.366    -0.03127269954057162     0.07592738193945892                3.343298
                   166.0                 36.4705      0.1383025962093887      0.1573188850298488                3.501899
                   167.0                  36.575    -0.06370055408345617   -0.011861773169502505                3.044959
                   168.0      36.679500000000004     0.11570482203204505      0.0548688668832943                3.408689
                   169.0                  36.784     0.06439733791283865    0.005931638535567595                3.374751
                   170.0                 36.8885     0.03293201731945476     0.04056298019245029                3.578689
                   171.0      36.992999999999995     0.08833224449325516    0.039954047444791425                3.357593
                   172.0                 37.0975     0.23060012011069328      0.2289384536594383                2.977729
                   173.0                  37.202     0.27014839754476777     0.43822529472929056                3.592945
                   174.0                 37.3065     0.07569938515449508    0.007923275085594018                3.889284
                   175.0                  37.411     0.15472223805347063      0.5064426135426916                3.422199
                   176.0                 37.5155     0.08409075233376198       0.320090340763354                2.938804
                   177.0                   37.62      0.1586974510887333      0.2752012058097241                3.397392
                   178.0                 37.7245     0.15184039216811743      0.1558728855208802                3.838711
                   179.0                  37.829     0.19228041395764522       0.258958523951566                3.750654
                   180.0      37.933499999999995     0.10924338693225773      0.3480120494280157                3.487082
                   181.0                  38.038      0.1607323832740983      0.1967808435751594                3.935789
                   182.0                 38.1425     0.18145774769398162     0.31349128063913045                3.663405
                   183.0                  38.247     0.24078832217759938      0.3002509182406285                3.606565
                   184.0                 38.3515      0.2740596355765254     0.16091244013170958                3.834885
                   185.0                  38.456     0.31859739276036114      0.4059110912484766                3.267567
                   186.0                 38.5605      0.3969297058854337     0.33307135977947677                3.105551
                   187.0                  38.665      0.2446039357451839     0.19951080238253888                3.332665
                   188.0                 38.7695     0.28669312061520774      0.3126724423581758                3.337144
                   189.0      38.873999999999995       0.222326451021225     0.16384933130556206                3.169856
                   190.0                 38.9785     0.47603001416764296      0.2894480405378215                3.245704
