#                 frames                   t (s)                 x (pxl)                 y (pxl)                       f
                   237.0                  21.945     -0.3892800276094386     0.05097074166651419                1.532564
                   238.0                 22.0495    -0.27091362364591953     0.28555804549761515                2.115518
                   239.0                  22.154     -0.1596750384242121      0.2001609584578757                1.613809
                   240.0      22.258500000000005                     nan                     nan                     nan
                   241.0                  22.363    -0.06916686971577816     0.47507441234662917                1.832329
                   242.0      22.467499999999998    -0.31341855344710323      0.5678902627516783                2.027377
                   243.0                  22.572     -0.2599757899124087      0.4024951822088345                1.955422
                   244.0      22.676499999999997    -0.13898867618118504      0.3538674770091424                1.776712
                   245.0                  22.781     -0.2097659893469613     0.18811619774399313                1.995992
                   246.0      22.885499999999997     -0.2637950623461689      0.5584214003091836                1.743306
                   247.0                   22.99    -0.09310795535166601    0.005381972308924397                1.557912
                   248.0                 23.0945      -0.197605630130741     0.23674811125489723                1.747801
                   249.0      23.198999999999998    -0.15792929037177456      -0.100112600306031                1.620332
                   250.0                 23.3035     -0.2439351468442831     0.23306213972903256                2.014156
                   251.0      23.407999999999998     0.08823748844144946     0.09812758780355718                1.913637
                   252.0                 23.5125    -0.08425257567675341      0.2539743984622829                 1.81491
                   253.0      23.616999999999997    -0.13765185264533217     0.19898787271976476                1.725232
                   254.0                 23.7215    -0.04075544511540652      0.1511831157096612                1.655123
                   255.0      23.826000000000004                     nan                     nan                     nan
                   256.0                 23.9305     -0.2139054124492654     0.11576972617570744                1.753736
                   257.0                  24.035     0.14552070136278875     0.06253759001754124                1.694489
                   258.0      24.139499999999998   -0.051978110064502356    0.050194555147387396                1.883719
                   259.0                  24.244     0.06904326114684282     0.21547809504814544                1.669041
                   260.0      24.348499999999998     0.07214197770512232      0.5412077796098793                1.739611
                   261.0                  24.453     0.05954100402257629      0.2188743250969365                1.935959
                   262.0      24.557499999999997     0.10364742143147475     0.10299416907205036                1.999904
                   263.0                  24.662     -0.3021791360832962      0.5767324337137276                 1.93426
                   264.0      24.766499999999997     0.10590453106618394      0.1816240413922833                1.833841
                   265.0                  24.871     0.16010008835074319       0.231970028517538                2.189218
                   266.0                 24.9755    0.001983295131411338     0.23887961910127312                2.250238
                   267.0                   25.08     0.05130373441850622    -0.24808145145419497                1.860141
                   268.0                 25.1845     0.25520289340656493      0.0968615807597681                2.330657
                   269.0      25.288999999999998     0.10272297300364325      0.2947561360131136                1.586561
                   270.0                 25.3935    -0.16317314493793278        0.53608678005071                1.847967
                   271.0      25.497999999999998   -0.014515147416415634     0.13136328658153104                1.579406
                   272.0                 25.6025     -0.0915818778123042      0.2829510617485517                1.921582
                   273.0      25.706999999999997    0.019199883663402147     0.24123286458785037                2.522743
                   274.0                 25.8115    -0.11492964166909198        0.31227648438639                1.865624
                   275.0      25.915999999999997     0.19357896128902063   -0.009230730659923535                1.500561
                   276.0                 26.0205    -0.06945129700655149     0.13593195741786282                1.834896
                   277.0                  26.125     -0.2171776395585793     0.21207023584074147                1.823898
                   278.0      26.229499999999998   -0.021635538663800954       0.370728897821918                1.874944
                   279.0                  26.334     0.13895109190527355     0.07308422443690538                1.757701
                   280.0      26.438499999999998    -0.20942376138605634   -0.009899615159987345                2.427507
                   281.0                  26.543     0.08587440304281177     0.14689588870074052                2.415939
                   282.0      26.647499999999997     0.01840326882253531     0.18733475332413935                2.139982
                   283.0                  26.752    -0.22422856750638542      0.4203343447243269                2.075738
                   284.0      26.856499999999997     -0.4507340495687575     0.31026010615920074                2.532974
                   285.0                  26.961     -0.1376335398578827     0.05902475174269488                2.699317
                   286.0                 27.0655    -0.14738136796653314       0.376454790762578                2.073296
                   287.0      27.169999999999998      -0.217291886028872     0.21875695915968496                 2.28363
                   288.0                 27.2745    -0.24468997949304724     0.12857620773495518                2.175756
                   289.0      27.378999999999998   -0.058600393034323635    -0.06601558252255792                1.916595
                   290.0                 27.4835    -0.04069748092114363     0.20380303871561464                2.461397
                   291.0      27.587999999999997    -0.28579590264891513     0.22910189472839393                2.452456
                   292.0                 27.6925     -0.1937784418738995     0.22058607177818623                2.546153
                   293.0      27.796999999999997     -0.3097901378700295     0.32269501971177383                2.223505
                   294.0                 27.9015    -0.28726889727124194     0.16536531283194794                 1.98331
                   295.0      28.005999999999997    -0.21671838440409927     0.19941854387077015                2.506323
                   296.0                 28.1105     -0.2370268354220383     0.14798211881758147                2.019765
                   297.0                  28.215    0.022444658260549165     0.17220686366925272                 2.05786
                   298.0      28.319499999999998    -0.03430098199750925     0.07409058042991284                2.669597
                   299.0                  28.424     0.06144474822684298     0.12327138230224798                1.967425
                   300.0      28.528499999999998     0.05194935923475642      0.1363027257820716                 2.14613
                   301.0                  28.633    -0.11051432767149313     0.23299455081824863                2.162642
                   302.0      28.737499999999997     0.10747981104185998    -0.00994328923065264                2.048823
                   303.0                  28.842    -0.08798778972680618     0.18685381179917504                2.300238
                   304.0      28.946499999999997     -0.2225242247126316      0.1453625173953456                1.768322
                   305.0                  29.051     -0.1676277457363073     0.21268633826881067                1.823409
                   306.0                 29.1555    -0.08781665253623692    -0.06275069650358711                2.037846
                   307.0      29.259999999999998     -0.2569693673420557     0.07324984262704695                2.003946
                   308.0                 29.3645     -0.0587080803365532     0.01587882673988631                1.633281
                   309.0                  29.469    -0.07932900798103407    -0.08329048004442936                2.023232
                   310.0      29.573499999999996    -0.19396893808815077    -0.08636923661733704                2.344746
                   311.0      29.677999999999997    0.054381771390215425     0.22346674838374744                 1.97901
                   312.0                 29.7825     -0.3158671830539087    -0.15304635872281017                2.070063
                   313.0                  29.887  -0.0061961266853217895  -0.0014162809131540305                1.682467
                   314.0      29.991499999999995    -0.07043952596326022      0.3577632887859226                1.511406
                   315.0      30.095999999999997   -0.058275699219502534    -0.11561265706256087                1.987405
                   316.0      30.200499999999998     0.05195292188817488      0.1740664966121517                2.458848
                   317.0                  30.305    -0.06550680549988595   -0.034852744191372825                2.302635
                   318.0                 30.4095    -0.21719136276477244       0.369424859022498                2.554295
                   319.0      30.513999999999996     0.10285644077300184      0.1354496646713808                2.663484
                   320.0      30.618499999999997    -0.08406520948488294     0.30072997963619685                2.096533
                   321.0                  30.723  0.00021096058371908864   0.0008896734937955404                2.412715
                   322.0                 30.8275    0.001988347535549179     0.03763574723811723                2.515344
                   323.0      30.931999999999995    0.021342661860777375   -0.010426533429787964                2.457247
                   324.0      31.036499999999997    -0.14234656286559566      0.1466333914029923                2.611439
                   325.0                  31.141     0.13714855027823133    0.003964698478727205                2.248741
                   326.0                 31.2455     0.12072322056547602    -0.15083764021105714                2.607617
                   327.0                   31.35     0.07503953480891094    -0.07113288591938721                2.364332
                   328.0      31.454499999999996    -0.01419597294217983    -0.01056696612611169                2.389336
                   329.0      31.558999999999997      0.1236195567690706    -0.17858756389735897                2.270115
                   330.0                 31.6635   -0.003374200334638291    -0.12352189780963842                2.638537
                   331.0                  31.768     0.13522847468511492     0.10752383874996353                2.697701
                   332.0      31.872499999999995     0.07701286232551498     -0.1878638281262949                1.967826
                   333.0      31.976999999999997     -0.2682406929411505    -0.17760724912887693                1.952689
                   334.0                 32.0815    0.027585482319241756      0.2998256850711068                2.083723
                   335.0                  32.186     0.15526105913881416     -0.3424530093145888                2.307129
                   336.0                 32.2905   -0.041771244221399675     0.04896586207713499                2.159923
                   337.0      32.394999999999996    0.054103602127293614      0.0660671275746039                2.108711
                   338.0                 32.4995   -0.012305233900886977     0.05717912828439566                1.846324
                   339.0                  32.604      0.1664342443018399    -0.07741349303198551                2.757743
                   340.0                 32.7085      0.1134149918441034     0.15540752711400657                2.079494
                   341.0      32.812999999999995      0.2195911917114949      0.2039442163987071                2.046586
                   342.0                 32.9175     0.12472881475611114    0.016740000219224768                2.203335
                   343.0                  33.022      0.3286278026815328     0.01784381315043533                 2.13415
                   344.0                 33.1265     0.24705069563357232    -0.10394618154406164                1.953951
                   345.0                  33.231     0.12892032810733395     -0.1946895958566973                2.482943
                   346.0      33.335499999999996    -0.03182823159979868    -0.04857660316240762                2.805655
                   347.0                   33.44    0.047847446968618416      0.1933627853663357                2.766196
                   348.0                 33.5445    -0.05712775263566826    -0.15756124574728925                2.135688
                   349.0                  33.649     0.03851054491907211     0.16094052908894638                2.533914
                   350.0      33.753499999999995     0.08859352510023356    -0.12866775705144534                1.956302
                   351.0                  33.858    -0.02160741395616147      0.3431806144452591                2.045181
                   352.0                 33.9625    -0.02560879782604565     0.08288488633369864                2.723292
                   353.0                  34.067    -0.06352744216459644     0.05415489869836612                2.450945
                   354.0      34.171499999999995      0.1568204465823737     0.15603781908127984                2.353824
                   355.0      34.275999999999996    -0.01753428003694037     -0.2333402740306686                2.277244
                   356.0                 34.3805     0.11482436422885517   -0.052040170213488016                2.557319
                   357.0                  34.485     0.03608185211940882     -0.0350702024853381                2.914373
                   358.0                 34.5895     0.12351538958483906    -0.08862811820543315                2.722271
                   359.0      34.693999999999996     0.14202469165388287     0.03247306944735421                2.970171
                   360.0                 34.7985    0.033164571227616076    -0.06846302261479677                2.832665
                   361.0                  34.903      0.2931074270893591    0.010073295356203944                 2.81937
                   362.0                 35.0075     0.18951490469440926     0.08193113170585263                 2.46264
                   363.0      35.111999999999995    -0.12002998377063609     0.06952756213245413                3.007907
                   364.0      35.216499999999996     0.08815082691131236    0.027768185846323047                3.113889
                   365.0                  35.321    0.036494722346663615    0.006970553884819997                2.613849
                   366.0                 35.4255    -0.19162374610405866       0.333254135110883                3.134332
                   367.0                   35.53     0.11538909248953971    0.048690542436579026                2.404692
                   368.0      35.634499999999996     0.11244615335167732    0.045097947938058436                2.426136
                   369.0                  35.739     0.08334220691418545   0.0026566832683565323                2.564985
                   370.0                 35.8435     -0.0532105084152346     0.10059269677290149                2.620406
                   371.0                  35.948    0.043549317725352886    0.039048661560356863                2.768316
                   372.0      36.052499999999995    -0.25941345803829174     0.13177898785972686                2.478459
                   373.0                  36.157    -0.10099486901170904     0.00940144427910498                2.899704
                   374.0                 36.2615     -0.1056333794930764    -0.07783881595385292                3.015234
                   375.0                  36.366     0.01091808163665568     0.14228588411755463                2.647279
                   376.0                 36.4705      0.1470192966754251   0.0024503400131545058                2.374124
                   377.0      36.574999999999996    -0.25606484802601304     0.16526557466677283                2.094106
                   378.0                 36.6795     0.06837668386561087    0.007612888458088099                2.682911
                   379.0                  36.784    -0.07339810689041935    0.005370853203236976                2.936279
                   380.0                 36.8885    0.028816437236900604    -0.16465412613169012                 2.40025
                   381.0      36.992999999999995     0.22014016187117533     0.18358391500693305                2.603169
                   382.0                 37.0975     0.08825098451367114     0.00353028013120877                2.795196
                   383.0                  37.202     -0.1096462720886788      0.4144245191931161                 2.84233
                   384.0                 37.3065    -0.07596773626741703     0.11033337541885607                2.691612
                   385.0                  37.411    0.024932143588890548  -0.0016225955651938079                2.512543
                   386.0      37.515499999999996    -0.06713707909728778     0.05454171546915463                  2.8027
                   387.0                   37.62     0.11554460435581142     0.03483415091283788                2.549457
                   388.0                 37.7245     0.21197305428364918    0.014805420610715802                2.344718
                   389.0                  37.829    -0.17818785157976857    -0.00557149448542826                3.049788
                   390.0      37.933499999999995      0.2220323182932286     0.05418639898334614                2.762518
                   391.0                  38.038     0.23767211622556245    -0.18761513297341192                2.360929
                   392.0                 38.1425      0.2765274739018262   -0.057660643155440935                 2.79145
                   393.0                  38.247     0.20941666864190298    -0.21260977611643792                3.323304
                   394.0                 38.3515      0.1830160760879068     -0.1119002851793993                 2.84404
                   395.0      38.455999999999996      0.2910409571859927    -0.07246514530715359                2.939535
                   396.0                 38.5605      0.3525044922768969    -0.34167640651873193                2.818921
                   397.0                  38.665     0.45133068069879406    -0.02613306180995878                2.812801
                   398.0                 38.7695     0.42899215697894283    -0.19370772282711893                 2.38221
                   399.0      38.873999999999995      0.5951252155442099     -0.2543280005215613                2.951389
                   400.0                 38.9785      0.5599191075166247     -0.2812841373284218                2.280452
